#      theta/pi                     QFI                     CFI

7.701000000000000068e-01 1.915253524814844241e+03 1.862129461045497465e+03
7.701999999999998847e-01 1.941995944715711630e+03 1.891051490140088845e+03
7.702999999999999847e-01 1.969886115952310547e+03 1.921100271367060486e+03
7.703999999999999737e-01 1.998966529706959591e+03 1.952321713371533860e+03
7.704999999999999627e-01 2.029282413621585874e+03 1.984764416284002209e+03
7.706000000000000627e-01 2.060881877043665554e+03 2.018479860307584204e+03
7.707000000000000517e-01 2.093816072056634766e+03 2.053522578351329685e+03
7.708000000000000407e-01 2.128139363189962751e+03 2.089950337357221088e+03
7.709000000000001407e-01 2.163909508148656187e+03 2.127824330320720492e+03
7.710000000000000187e-01 2.201187852837881564e+03 2.167209382505325266e+03
7.711000000000000076e-01 2.240039535791675007e+03 2.208174167259996921e+03
7.711999999999999966e-01 2.280533708183646922e+03 2.250791465627531124e+03
7.712999999999999856e-01 2.322743765667037678e+03 2.295138299487932727e+03
7.713999999999998636e-01 2.366747592903548139e+03 2.341296346073167570e+03
7.715000000000000746e-01 2.412627822414282946e+03 2.389352105273521829e+03
7.716000000000000636e-01 2.460472109017183811e+03 2.439397209704354282e+03
7.717000000000001636e-01 2.510373412899128198e+03 2.491528718231842049e+03
7.718000000000000416e-01 2.562430301815677467e+03 2.545849428447496848e+03
7.719000000000000306e-01 2.616747263693814602e+03 2.602468199141358582e+03
7.720000000000000195e-01 2.673435029849157218e+03 2.661500282931846414e+03
7.721000000000001195e-01 2.732610914419600704e+03 2.723067674310016628e+03
7.721999999999999975e-01 2.794399160750788269e+03 2.787299463780045244e+03
7.722999999999999865e-01 2.858931295939288702e+03 2.854332199341337855e+03
7.723999999999999755e-01 2.926346496611190560e+03 2.924310280892271294e+03
7.724999999999999645e-01 2.996791953179841585e+03 2.997386238055790272e+03
7.726000000000000645e-01 3.070423239237591133e+03 3.073721232606215381e+03
7.727000000000000535e-01 3.147404675971013148e+03 3.153485337474021890e+03
7.728000000000000425e-01 3.227909689574810727e+03 3.236857911369956582e+03
7.728999999999999204e-01 3.312121155243514750e+03 3.324027935931818774e+03
7.730000000000000204e-01 3.400231718944338354e+03 3.415194326862976595e+03
7.731000000000000094e-01 3.492444096296243515e+03 3.510566217150108969e+03
7.731999999999999984e-01 3.588971328059710686e+03 3.610363191943930360e+03
7.733000000000000984e-01 3.690036991976230638e+03 3.714815473215295697e+03
7.733999999999999764e-01 3.795875350169539161e+03 3.824164032644881445e+03
7.735000000000000764e-01 3.906731427082568644e+03 3.938660626992739253e+03
7.736000000000000654e-01 4.022860990313806724e+03 4.058567727089478012e+03
7.736999999999999433e-01 4.144530425520403696e+03 4.184158346599917422e+03
7.738000000000000433e-01 4.272016480275968206e+03 4.315715646482810371e+03
7.739000000000000323e-01 4.405605853440315514e+03 4.453532531466817090e+03
7.740000000000000213e-01 4.545594605653534018e+03 4.597910896242710805e+03
7.740999999999998993e-01 4.692287361018760748e+03 4.749160723477427382e+03
7.741999999999999993e-01 4.845996269984076207e+03 4.907598910321406038e+03
7.742999999999999883e-01 5.007039697881456959e+03 5.073547801412177250e+03
7.743999999999999773e-01 5.175740604660615645e+03 5.247333392515479318e+03
7.745000000000000773e-01 5.352424572630916373e+03 5.429283160717744067e+03
7.746000000000000663e-01 5.537417449810006474e+03 5.619723487683847452e+03
7.747000000000000552e-01 5.731042554753884360e+03 5.818976620798647673e+03
7.748000000000000442e-01 5.933617411245487347e+03 6.027357141224370025e+03
7.749000000000000332e-01 6.145449961744734537e+03 6.245167887392727607e+03
7.750000000000000222e-01 6.366834225628308559e+03 6.472695301574040059e+03
7.751000000000000112e-01 6.598045353430412433e+03 6.710204152547970807e+03
7.752000000000000002e-01 6.839334059801663898e+03 6.957931620218028911e+03
7.752999999999998781e-01 7.090920389263572361e+03 7.216080712045832115e+03
7.753999999999999782e-01 7.352986815622523864e+03 7.484812950267538326e+03
7.755000000000000782e-01 7.625670661288098017e+03 7.764240490783454334e+03
7.756000000000001782e-01 7.909055847591639576e+03 8.054417474100214349e+03
7.757000000000000561e-01 8.203164015489786834e+03 8.355330821923329495e+03
7.758000000000000451e-01 8.507945062998454887e+03 8.666890474727666515e+03
7.759000000000000341e-01 8.823267181816290758e+03 8.988919178762746014e+03
7.760000000000001341e-01 9.148906515296304860e+03 9.321141962636431344e+03
7.761000000000000121e-01 9.484536572743563738e+03 9.663175456952969398e+03
7.762000000000000011e-01 9.829717596638452960e+03 1.001451727520618988e+04
7.762999999999999901e-01 1.018388610494249588e+04 1.037453569981725741e+04
7.763999999999999790e-01 1.054634487410500151e+04 1.074245996036654833e+04
7.764999999999998570e-01 1.091625368357151092e+04 1.111737144713472117e+04
7.766000000000000680e-01 1.129262115576968063e+04 1.149819621327901405e+04
7.767000000000000570e-01 1.167429808902367404e+04 1.188369917909665492e+04
7.768000000000001570e-01 1.205997268283685480e+04 1.227248044993219446e+04
7.769000000000000350e-01 1.244816809348990319e+04 1.266297419126229761e+04
7.770000000000000240e-01 1.283724273783790886e+04 1.305345047549268565e+04
7.771000000000000130e-01 1.322539377235110442e+04 1.344202051574821780e+04
7.772000000000001130e-01 1.361066411585954484e+04 1.382664563120953062e+04
7.772999999999999909e-01 1.399095335922405684e+04 1.420515025202065226e+04
7.773999999999999799e-01 1.436403278179112203e+04 1.457523913489597908e+04
7.775000000000000799e-01 1.472756463993673606e+04 1.493451889957451203e+04
7.775999999999999579e-01 1.507912571204973756e+04 1.528052376647644633e+04
7.777000000000000579e-01 1.541623499113712933e+04 1.561074538395272430e+04
7.778000000000000469e-01 1.573638519105776504e+04 1.592266621749943988e+04
7.779000000000000359e-01 1.603707761845720415e+04 1.621379604071652648e+04
7.779999999999999138e-01 1.631585973253540396e+04 1.648171072945538253e+04
7.781000000000000139e-01 1.657036459203971754e+04 1.672409248155914247e+04
7.782000000000000028e-01 1.679835120543745506e+04 1.693877040884570670e+04
7.782999999999999918e-01 1.699774470733328417e+04 1.712376037278401054e+04
7.784000000000000918e-01 1.716667518674512394e+04 1.727730286076180710e+04
7.784999999999999698e-01 1.730351397101131806e+04 1.739789770389093610e+04
7.786000000000000698e-01 1.740690618785161132e+04 1.748433448479973595e+04
7.787000000000000588e-01 1.747579850320660262e+04 1.753571758784654594e+04
7.787999999999999368e-01 1.750946106848873387e+04 1.755148500703703394e+04
7.789000000000000368e-01 1.750750290581698209e+04 1.753142024625513659e+04
7.790000000000000258e-01 1.746988015545301096e+04 1.747565685941120319e+04
7.791000000000000147e-01 1.739689691232867335e+04 1.738467549415689791e+04
7.791999999999998927e-01 1.728919860239021727e+04 1.725929352929018933e+04
7.792999999999999927e-01 1.714775817545529935e+04 1.710064771923790977e+04
7.793999999999999817e-01 1.697385559367853784e+04 1.691017044981635263e+04
7.795000000000001927e-01 1.676905139440113999e+04 1.668956049096226707e+04
7.796000000000000707e-01 1.653515522125912321e+04 1.644074922470781530e+04
7.797000000000000597e-01 1.627419044116541045e+04 1.616586352349579647e+04
7.798000000000000487e-01 1.598835596939320749e+04 1.586718642985990300e+04
7.799000000000000377e-01 1.567998652182310252e+04 1.554711685826854773e+04
7.800000000000000266e-01 1.535151245664543785e+04 1.520812945695539383e+04
7.801000000000000156e-01 1.500542029619881214e+04 1.485273567353484032e+04
7.802000000000000046e-01 1.464421492522483459e+04 1.448344695648634115e+04
7.802999999999999936e-01 1.427038429819697558e+04 1.410274084840023170e+04
7.803999999999998716e-01 1.388636733808699682e+04 1.371303056851308065e+04
7.804999999999999716e-01 1.349452553455176349e+04 1.331663850636076495e+04
7.806000000000000716e-01 1.309711857312237044e+04 1.291577387375063699e+04
7.807000000000001716e-01 1.269628415494109504e+04 1.251251459626493488e+04
7.808000000000000496e-01 1.229402203917311454e+04 1.210879340643386604e+04
7.809000000000000385e-01 1.189218218084076943e+04 1.170638795266392299e+04
7.810000000000000275e-01 1.149245675198442041e+04 1.130691466458265495e+04
7.811000000000001275e-01 1.109637573936059744e+04 1.091182603193451905e+04
7.812000000000000055e-01 1.070530575084253906e+04 1.052241090576182978e+04
7.812999999999999945e-01 1.032045163850758036e+04 1.013979741565545919e+04
7.813999999999999835e-01 9.942860504963829953e+03 9.764958065403487126e+03
7.814999999999999725e-01 9.573427686412011099e+03 9.398716603666414812e+03
7.816000000000000725e-01 9.212904297555607627e+03 9.041756263615139687e+03
7.817000000000000615e-01 8.861905961241820478e+03 8.694629008865385913e+03
7.818000000000000504e-01 8.520922370382479130e+03 8.357765449672549948e+03
7.819000000000001505e-01 8.190327372958289743e+03 8.031485139040349168e+03
7.820000000000000284e-01 7.870389307162898149e+03 7.716006995656050094e+03
7.821000000000000174e-01 7.561281354207720142e+03 7.411459640529469652e+03
7.822000000000000064e-01 7.263091720170335066e+03 7.117891477287954331e+03
7.823000000000001064e-01 6.975833489865121919e+03 6.835280377181988115e+03
7.823999999999999844e-01 6.699454036642884603e+03 6.563542868200723206e+03
7.824999999999999734e-01 6.433843898074173921e+03 6.302542752494156957e+03
7.826000000000000734e-01 6.178845057892596742e+03 6.052099105259594580e+03
7.826999999999999513e-01 5.934258596032775131e+03 5.811993626929628590e+03
7.828000000000000513e-01 5.699851691774947540e+03 5.581977342683666393e+03
7.829000000000000403e-01 5.475363975487605785e+03 5.361776652025881049e+03
7.830000000000000293e-01 5.260513244068742097e+03 5.151098748840654480e+03
7.830999999999999073e-01 5.055000559325818358e+03 4.949636435846789936e+03
7.832000000000000073e-01 4.858514761664336220e+03 4.757072368700725747e+03
7.832999999999999963e-01 4.670736429745044916e+03 4.573082762854911380e+03
7.833999999999999853e-01 4.491341328756639086e+03 4.397340606992826906e+03
7.835000000000000853e-01 4.320003383597453649e+03 4.229518419898135107e+03
7.836000000000000743e-01 4.156397219878498618e+03 4.069290594313642941e+03
7.837000000000000632e-01 4.000200312168497021e+03 3.916335366426324072e+03
7.838000000000000522e-01 3.851094777956737289e+03 3.770336449180025738e+03
7.838999999999999302e-01 3.708768857568811200e+03 3.630984368537634509e+03
7.840000000000000302e-01 3.572918111631198826e+03 3.497977533637931629e+03
7.841000000000000192e-01 3.443246372504170267e+03 3.371023075993829025e+03
7.842000000000000082e-01 3.319466478718691178e+03 3.249837485396464217e+03
7.842999999999998861e-01 3.201300821088556859e+03 3.134147070514597999e+03
7.843999999999999861e-01 3.088481726055288163e+03 3.023688268046337726e+03
7.844999999999999751e-01 2.980751699627513062e+03 2.918207823223400283e+03
7.846000000000001862e-01 2.877863551478958016e+03 2.817462859707522512e+03
7.847000000000000641e-01 2.779580420739949204e+03 2.721220859369513619e+03
7.848000000000000531e-01 2.685675716288192234e+03 2.629259564304880769e+03
7.849000000000000421e-01 2.595932988191717868e+03 2.541366816545836173e+03
7.850000000000000311e-01 2.510145744077156905e+03 2.457340348068480125e+03
7.851000000000000201e-01 2.428117217834129406e+03 2.376987528636380830e+03
7.852000000000000091e-01 2.349660105085853502e+03 2.300125084349251665e+03
7.852999999999999980e-01 2.274596269354085052e+03 2.226578791078922222e+03
7.853999999999999870e-01 2.202756429793848383e+03 2.156183152223353318e+03
7.855000000000000870e-01 2.133979833265179423e+03 2.088781063918245763e+03
7.856000000000000760e-01 2.068113918881596874e+03 2.024223475043432927e+03
7.857000000000000650e-01 2.005013977213091721e+03 1.962369043588612385e+03
7.858000000000001650e-01 1.944542808832180981e+03 1.903083794263453910e+03
7.859000000000000430e-01 1.886570385168236498e+03 1.846240779694689081e+03
7.860000000000000320e-01 1.830973513132450307e+03 1.791719746639714003e+03
7.861000000000000210e-01 1.777635507311066021e+03 1.739406810349012630e+03
7.862000000000001210e-01 1.726445869267922490e+03 1.689194137161934805e+03
7.862999999999999989e-01 1.677299976669547277e+03 1.640979637152386658e+03
7.863999999999999879e-01 1.630098782385783579e+03 1.594666667431443557e+03
7.864999999999999769e-01 1.584748524141896496e+03 1.550163746260049493e+03
7.865999999999999659e-01 1.541160446085525109e+03 1.507384279167804834e+03
7.867000000000000659e-01 1.499250531373068497e+03 1.466246296330497671e+03
7.868000000000000549e-01 1.458939246409943962e+03 1.426672201762959958e+03
7.869000000000000439e-01 1.420151297041687030e+03 1.388588534315560310e+03
7.870000000000001439e-01 1.382815395998463828e+03 1.351925739977525382e+03
7.871000000000000218e-01 1.346864041835969601e+03 1.316617955603109522e+03
7.872000000000000108e-01 1.312233308837265895e+03 1.282602803593852286e+03
7.872999999999999998e-01 1.278862647772067703e+03 1.249821197051339141e+03
7.874000000000000998e-01 1.246694697239005791e+03 1.218217155728139232e+03
7.875000000000000888e-01 1.215675104686451277e+03 1.187737631244659497e+03
7.876000000000000778e-01 1.185752357687849781e+03 1.158332342504471171e+03
7.877000000000000668e-01 1.156877623797721526e+03 1.129953619569270813e+03
7.877999999999999448e-01 1.129004600171720085e+03 1.102556256960746396e+03
7.879000000000000448e-01 1.102089370723458160e+03 1.076097374568796113e+03
7.880000000000000338e-01 1.076090271929499295e+03 1.050536286898204480e+03
7.881000000000000227e-01 1.050967766391595660e+03 1.025834379768759163e+03
7.881999999999999007e-01 1.026684323224767923e+03 1.001954993974973149e+03
7.883000000000000007e-01 1.003204305487201054e+03 9.788633156932776274e+02
7.883999999999999897e-01 9.804938645934660144e+02 9.565262735448801550e+02
7.884999999999999787e-01 9.585208401182179614e+02 9.349124412198536902e+02
7.886000000000000787e-01 9.372546660972675454e+02 9.139919461714200679e+02
7.887000000000000677e-01 9.166662824986495934e+02 8.937363835379287593e+02
7.888000000000000567e-01 8.967280519131877554e+02 8.741187350390748634e+02
7.889000000000000457e-01 8.774136813385664482e+02 8.551132927587083259e+02
7.889999999999999236e-01 8.586981481119996715e+02 8.366955873200860196e+02
7.891000000000000236e-01 8.405576308374180599e+02 8.188423204111165887e+02
7.892000000000000126e-01 8.229694437323241800e+02 8.015313010341002382e+02
7.893000000000000016e-01 8.059119753032280187e+02 7.847413857790877501e+02
7.893999999999998796e-01 7.893646302517714730e+02 7.684524223763014561e+02
7.895000000000000906e-01 7.733077751379875053e+02 7.526451967226669240e+02
7.896000000000000796e-01 7.577226868332902541e+02 7.373013827745204480e+02
7.897000000000001796e-01 7.425915043841347369e+02 7.224034956695157916e+02
7.898000000000000576e-01 7.278971832829432742e+02 7.079348472315332401e+02
7.899000000000000465e-01 7.136234527627393618e+02 6.938795043693731941e+02
7.900000000000000355e-01 6.997547751480826719e+02 6.802222495936695168e+02

