#     theta/pi                    M=1000                   M=10000                 M=25000

6.400000000000000133e-01 1.229247664358992071e-04 1.111640543752776077e-45 1.787207023038567904e-104
6.401000000000001133e-01 1.425182446957782949e-04 9.044942128668761511e-45 2.851421545509880035e-102
6.402000000000001023e-01 1.649101996862492440e-04 7.220109292515416173e-44 4.336451120730540991e-100
6.403000000000000913e-01 1.904438445509146010e-04 5.653830766897234684e-43 6.284995501292514398e-98
6.403999999999999693e-01 2.194952354021102107e-04 4.342773038338746824e-42 8.679273499644502383e-96
6.405000000000000693e-01 2.524749698748085937e-04 3.271754783336049047e-41 1.141772127552680154e-93
6.406000000000000583e-01 2.898297412880645888e-04 2.417393678373506554e-40 1.430547560915651834e-91
6.407000000000000473e-01 3.320437012243202739e-04 1.751582205535768465e-39 1.706712899951861963e-89
6.408000000000000362e-01 3.796395786984420599e-04 1.244495700721449303e-38 1.938482164017629697e-87
6.409000000000001362e-01 4.331794996909398379e-04 8.669598385818932792e-38 2.095624817461467510e-85
6.410000000000000142e-01 4.932654467994977915e-04 5.921203267930683924e-37 2.155868202975895090e-83
6.411000000000000032e-01 5.605392952774832177e-04 3.964503627236023502e-36 2.110054833938693935e-81
6.411999999999999922e-01 6.356823589349348781e-04 2.601942593627280570e-35 1.964415645226713760e-79
6.413000000000000922e-01 7.194143774746611548e-04 1.673780716394532946e-34 1.739184748586225629e-77
6.414000000000000812e-01 8.124918759724021828e-04 1.055244304775807158e-33 1.463978352254462398e-75
6.415000000000000702e-01 9.157058276173556718e-04 6.519622650766693489e-33 1.171395171563893231e-73
6.415999999999999481e-01 1.029878552666016163e-03 3.947007901361469339e-32 8.907474682730623227e-72
6.417000000000000481e-01 1.155859790006385796e-03 2.341264375922807609e-31 6.435614540366044122e-70
6.418000000000000371e-01 1.294521882988689193e-03 1.360599791499146199e-30 4.416832084382976261e-68
6.419000000000000261e-01 1.446754028351851214e-03 7.745832527080335955e-30 2.878840942804722659e-66
6.420000000000001261e-01 1.613455546319423044e-03 4.319401383273452940e-29 1.781599766974710201e-64
6.421000000000001151e-01 1.795528141354718740e-03 2.359155108959045365e-28 1.046616047811256013e-62
6.421999999999999931e-01 1.993867136674674911e-03 1.261904041350330329e-27 5.835092641520841846e-61
6.422999999999999821e-01 2.209351681418127676e-03 6.609859272943804867e-27 3.086660650390637567e-59
6.423999999999999710e-01 2.442833947385314886e-03 3.390103803803984060e-26 1.548844064866387638e-57
6.425000000000000711e-01 2.695127352262304248e-03 1.702343684709184800e-25 7.370558110290273469e-56
6.426000000000000600e-01 2.966993868123412367e-03 8.368608015117710341e-25 3.325541522740415024e-54
6.427000000000000490e-01 3.259130497531706645e-03 4.027067572732751680e-24 1.422290829731276649e-52
6.428000000000001490e-01 3.572155024289730852e-03 1.896758300698207867e-23 5.764643406814973255e-51
6.429000000000000270e-01 3.906591171583225983e-03 8.743389615141650339e-23 2.213643620896367438e-49
6.430000000000000160e-01 4.262853326315158529e-03 3.944114419249797408e-22 8.051682464477015084e-48
6.431000000000000050e-01 4.641231014273234506e-03 1.740915870374378475e-21 2.773326166790456308e-46
6.432000000000001050e-01 5.041873336070647540e-03 7.518325612165769116e-21 9.043604529779621280e-45
6.433000000000000940e-01 5.464773597335710435e-03 3.176403729587450868e-20 2.791249338904758897e-43
6.434000000000000830e-01 5.909754388419787355e-03 1.312735788320564496e-19 8.151950510032195543e-42
6.434999999999999609e-01 6.376453387501894096e-03 5.306419031968607156e-19 2.252261710814555081e-40
6.435999999999999499e-01 6.864310176160475299e-03 2.097797472363417006e-18 5.885161516120426826e-39
6.437000000000000499e-01 7.372554367236975117e-03 8.109951643363529311e-18 1.454009116234221488e-37
6.438000000000000389e-01 7.900195350535323471e-03 3.065633498898482300e-17 3.395715332881676113e-36
6.439000000000000279e-01 8.446013961970672002e-03 1.132983824813952159e-16 7.494388581976676148e-35
6.440000000000001279e-01 9.008556375442025588e-03 4.093385199206825324e-16 1.562667178276473166e-33
6.441000000000000059e-01 9.586130503862642580e-03 1.445607992323598674e-15 3.077555317666064827e-32
6.441999999999999948e-01 1.017680517545146643e-02 4.989772525152125675e-15 5.723178003637887254e-31
6.442999999999999838e-01 1.077841232434831494e-02 1.683162946264269609e-14 1.004714629920699412e-29
6.444000000000000838e-01 1.138855239971768227e-02 5.548037331177260012e-14 1.664575592397487634e-28
6.445000000000000728e-01 1.200460315576229453e-02 1.786786396407444835e-13 2.601956493220255916e-27
6.446000000000000618e-01 1.262373193672453389e-02 5.621831959179923819e-13 3.836293136139468862e-26
6.446999999999999398e-01 1.324291151586147637e-02 1.727852274216769269e-12 5.333563347856601620e-25
6.447999999999999288e-01 1.385893948753796380e-02 5.186926612190365916e-12 6.990284539958903120e-24
6.449000000000000288e-01 1.446846114677191944e-02 1.520684829344936104e-11 8.634176146257605034e-23
6.450000000000000178e-01 1.506799572287299653e-02 4.353559225203786200e-11 1.004781564541126747e-21
6.451000000000000068e-01 1.565396576388954769e-02 1.216959141427466460e-10 1.101342190391514011e-20
6.452000000000001068e-01 1.622272939865326141e-02 3.321112907103893394e-10 1.136703053234272493e-19
6.453000000000000957e-01 1.677061513400695744e-02 8.847423821803923023e-10 1.104381882416920365e-18
6.453999999999999737e-01 1.729395877901937148e-02 2.300512802925059966e-09 1.009744447956033097e-17
6.454999999999999627e-01 1.778914202651844800e-02 5.837888894049295813e-09 8.685506901307110538e-17
6.456000000000000627e-01 1.825263216722207080e-02 1.445635127610122350e-08 7.026531214670182175e-16
6.457000000000000517e-01 1.868102236490417137e-02 3.492860442653721228e-08 5.344641679881292707e-15
6.458000000000000407e-01 1.907107188378186560e-02 8.233245236000845537e-08 3.821173573583225411e-14
6.459000000000001407e-01 1.941974563246337201e-02 1.893107917754732247e-07 2.567103054686490999e-13
6.460000000000000187e-01 1.972425237528373926e-02 4.245619220315440581e-07 1.620037494901270823e-12
6.461000000000000076e-01 1.998208095992089900e-02 9.285697275036238454e-07 9.600811736099452316e-12
6.461999999999999966e-01 2.019103392338029296e-02 1.980349714250028922e-06 5.341422114833465443e-11
6.462999999999999856e-01 2.034925786420676425e-02 4.117834009164154779e-06 2.788918781882962064e-10
6.464000000000000856e-01 2.045527000976215051e-02 8.347196858341515775e-06 1.366179722124513857e-09
6.465000000000000746e-01 2.050798046047526760e-02 1.649309844619655758e-05 6.276749495555244352e-09
6.465999999999999526e-01 2.050670965989010233e-02 3.176128948440902190e-05 2.703819825893224514e-08
6.466999999999999416e-01 2.045120071661652925e-02 5.960358520340290595e-05 1.091683343406023598e-07
6.468000000000000416e-01 2.034162629220288496e-02 1.089855005165781356e-04 4.130005083500907829e-07
6.469000000000000306e-01 2.017858986448427261e-02 1.941468891889419808e-04 1.463515810096781574e-06
6.470000000000000195e-01 1.996312127772459366e-02 3.368995300477033617e-04 4.856172636712040069e-06
6.471000000000001195e-01 1.969666659579954668e-02 5.694047664301775955e-04 1.508330752700044634e-05
6.471999999999999975e-01 1.938107238180901068e-02 9.372049364211297324e-04 4.383890350095271310e-05
6.472999999999999865e-01 1.901856463166555836e-02 1.502043273706577149e-03 1.191892860727889386e-04
6.473999999999999755e-01 1.861172269128565787e-02 2.343721152147056671e-03 3.030274298957833976e-04
6.474999999999999645e-01 1.816344858128586537e-02 3.559965871427444098e-03 7.201874327200939773e-04
6.476000000000000645e-01 1.767693223921716975e-02 5.263110436726888691e-03 1.599479269802812258e-03
6.477000000000000535e-01 1.715561326497112155e-02 7.572439381639878807e-03 3.318415008258222571e-03
6.478000000000000425e-01 1.660313981707854658e-02 1.060145040738311520e-02 6.429100602811921999e-03
6.478999999999999204e-01 1.602332535641007999e-02 1.444009231428621323e-02 1.162745098556967199e-02
6.480000000000000204e-01 1.542010396652120259e-02 1.913323729665279346e-02 1.962365098130293764e-02
6.481000000000000094e-01 1.479748499715930268e-02 2.465806004964570669e-02 3.089450278991828433e-02
6.481999999999999984e-01 1.415950777792222837e-02 3.090430771176234936e-02 4.535578590194099674e-02
6.483000000000000984e-01 1.351019713373350500e-02 3.766223167308224012e-02 6.206933861043475303e-02
6.484000000000000874e-01 1.285352040286431158e-02 4.462279760694477793e-02 7.915095837460725536e-02
6.484999999999999654e-01 1.219334661238927545e-02 5.139342804570996848e-02 9.401787451722713740e-02
6.485999999999999543e-01 1.153340840771123130e-02 5.752998999766559957e-02 1.039870509642230184e-01
6.486999999999999433e-01 1.087726726233142864e-02 6.258241714387928478e-02 1.070535068627676972e-01
6.488000000000000433e-01 1.022828241469754713e-02 6.614798560178802855e-02 1.025445020959818709e-01
6.489000000000000323e-01 9.589583892184495167e-03 6.792374562123448811e-02 9.135862672731989709e-02
6.490000000000000213e-01 8.964049890701684259e-03 6.774875574949737467e-02 7.567407161845966790e-02
6.490999999999998993e-01 8.354288684213274224e-03 6.562800622218604996e-02 5.825570304717388875e-02
6.491999999999999993e-01 7.762625144562961856e-03 6.173313035644309443e-02 4.166350817480526936e-02
6.492999999999999883e-01 7.191091859912933544e-03 5.637948607571666854e-02 2.767134539016162173e-02
6.493999999999999773e-01 6.641424752799997624e-03 4.998384699869089925e-02 1.706049157017187901e-02
6.495000000000000773e-01 6.115063017725546300e-03 4.301060269924405349e-02 9.760412269845357425e-03
6.496000000000000663e-01 5.613153125177201136e-03 3.591614304500706512e-02 5.179494984848670262e-03
6.496999999999999442e-01 5.136556575597239598e-03 2.910065048683284014e-02 2.548445307253891477e-03
6.497999999999999332e-01 4.685861033768722560e-03 2.287412857139370023e-02 1.162135060872293438e-03
6.499000000000000332e-01 4.261394432567617088e-03 1.743993168869473545e-02 4.909697468077368074e-04
6.500000000000000222e-01 3.863241604895353322e-03 1.289532668790483935e-02 1.920842984031140397e-04
6.501000000000000112e-01 3.491262984411417584e-03 9.245613464427863970e-03 6.956469170795667332e-05
6.502000000000000002e-01 3.145114908739975266e-03 6.426623719114367243e-03 2.331123467161356333e-05
6.503000000000001002e-01 2.824271062627983254e-03 4.330132456328173590e-03 7.225024498326904741e-06
6.503999999999999782e-01 2.528044612479894183e-03 2.827597175403000988e-03 2.070274331966612886e-06
6.504999999999999671e-01 2.255610606332452903e-03 1.789197525472054941e-03 5.482094822515654870e-07
6.505999999999999561e-01 2.006028243710471486e-03 1.096855032660382740e-03 1.340940328524762389e-07
6.507000000000000561e-01 1.778262656443996672e-03 6.513518120667009846e-04 3.028513066824308360e-08
6.508000000000000451e-01 1.571205883057938402e-03 3.746124234254734732e-04 6.312741315471545914e-09
6.509000000000000341e-01 1.383696764206040911e-03 2.086282119453450453e-04 1.213906233324069501e-09
6.509999999999999121e-01 1.214539533575881335e-03 1.124894518094881918e-04 2.152482184255327251e-10
6.511000000000000121e-01 1.062520926168569312e-03 5.871127359831972777e-05 3.517940794760437899e-11
6.512000000000000011e-01 9.264256728058083883e-04 2.965682159467120135e-05 5.297096270301557966e-12
6.512999999999999901e-01 8.050502948336871667e-04 1.449582722593499494e-05 7.345003341727601378e-13
6.513999999999999790e-01 6.972151554816035561e-04 6.854850985193642506e-06 9.374624777116386959e-14
6.515000000000000790e-01 6.017747632509852160e-04 3.135525850982363243e-06 1.100842214678394220e-14
6.515999999999999570e-01 5.176263575421057115e-04 1.387076008646450491e-06 1.188791249809865695e-15
6.516999999999999460e-01 4.437168369858526199e-04 5.933175656148999447e-07 1.180032722851324056e-16
6.517999999999999350e-01 3.790481163908380959e-04 2.453523346293371745e-07 1.076186465416211252e-17
6.519000000000000350e-01 3.226810187298676013e-04 9.806806332498829622e-08 9.013254333898850157e-19
6.520000000000000240e-01 2.737378242473417918e-04 3.788062953161212279e-08 6.928998113526874520e-20
6.521000000000000130e-01 2.314036097368417258e-04 1.413761413586249819e-08 4.887047367234434413e-21
6.521999999999998909e-01 1.949265176111378403e-04 5.097074218363768339e-09 3.160828853935896555e-22
6.522999999999999909e-01 1.636170969636859842e-04 1.774874380172374476e-09 1.873800008443039330e-23
6.523999999999999799e-01 1.368468578254023295e-04 5.968035866965247841e-10 1.017656600165914179e-24
6.524999999999999689e-01 1.140461757686768608e-04 1.937434610271332260e-10 5.060825972154566304e-26
6.525999999999999579e-01 9.470167740112896463e-05 6.071116418970193376e-11 2.303395301455600674e-27
6.527000000000000579e-01 7.835322865451970268e-05 1.835985989364894121e-11 9.590155999087208902e-29
6.528000000000000469e-01 6.459063760619607522e-05 5.357253956632092092e-12 3.650686856847586719e-30
6.528999999999999249e-01 5.305017236145764164e-05 1.507992926836348625e-12 1.269975038026088912e-31
6.529999999999999138e-01 4.341098270400998299e-05 4.094039713161412211e-13 4.035207071192443149e-33
6.531000000000000139e-01 3.539150219384536058e-05 1.071793935756060851e-13 1.170477878878550876e-34
6.532000000000000028e-01 2.874589548953360320e-05 2.705124125060272239e-14 3.097864281859683132e-36
6.532999999999999918e-01 2.326060418793320897e-05 6.580959997693427857e-15 7.477161114426742605e-38
6.534000000000000918e-01 1.875103363428468561e-05 1.542859139410623820e-15 1.644969938176734503e-39
6.534999999999999698e-01 1.505841313770400488e-05 3.485029207278155053e-16 3.296826371011414022e-41
6.535999999999999588e-01 1.204685295325479908e-05 7.582931765335819978e-17 6.016159874380755389e-43
6.536999999999999478e-01 9.600613338600253211e-06 1.589004878800533536e-17 9.990665681082415610e-45
6.537999999999999368e-01 7.621593995153664836e-06 3.206097703416590818e-18 1.508989075923986707e-46
6.539000000000000368e-01 6.027046258181556369e-06 6.227261453925337858e-19 2.071846032008615420e-48
6.540000000000000258e-01 4.747505475679105624e-06 1.164101780624732234e-19 2.584460587461098919e-50
6.540999999999999037e-01 3.724937056156913558e-06 2.093930611757152938e-20 2.927406077060241988e-52
6.541999999999998927e-01 2.911086596716178682e-06 3.623383948139709039e-21 3.009223377191346720e-54
6.542999999999999927e-01 2.266022239355170954e-06 6.030449740004404232e-22 2.805693739214687322e-56
6.543999999999999817e-01 1.756855851550492967e-06 9.650951606845298167e-23 2.371344448860642950e-58
6.544999999999999707e-01 1.356628690315625604e-06 1.484830040414564133e-23 1.815807886272658824e-60
6.546000000000000707e-01 1.043346791686593090e-06 2.195684168203597849e-24 1.258973308581919567e-62
6.546999999999999487e-01 7.991513371554057554e-07 3.119960649199173871e-25 7.899200734992831907e-65
6.547999999999999376e-01 6.096095990290693686e-07 4.259055887680810871e-26 4.482461240534101737e-67
6.548999999999999266e-01 4.631126786605161822e-07 5.584195825083108349e-27 2.299119669941736450e-69
6.550000000000000266e-01 3.503670547709345418e-07 7.030534772077914468e-28 1.065273756823590773e-71
6.551000000000000156e-01 2.639678920414782806e-07 8.497537278390046115e-29 4.456116711484340599e-74
6.552000000000000046e-01 1.980430705673139594e-07 9.857586549676457541e-30 1.681847809654337658e-76
6.552999999999999936e-01 1.479579411940242040e-07 1.097276175784309688e-30 5.723857651287756631e-79
6.553999999999998716e-01 1.100718552240241189e-07 1.171718741180497309e-31 1.755489252177316820e-81
6.554999999999999716e-01 8.153853219617551344e-08 1.200014058886435613e-32 4.848953237347400597e-84
6.555999999999999606e-01 6.014329606894113622e-08 1.178412887623672218e-33 1.205506478244874510e-86
6.556999999999999496e-01 4.417111382817534544e-08 1.109299158368482028e-34 2.695827434851021463e-89
6.558000000000000496e-01 3.230020211822841169e-08 1.000762412748127012e-35 5.419295734088535461e-92
6.559000000000000385e-01 2.351672201689416028e-08 8.650368870562117143e-37 9.786942466934135823e-95
6.559999999999999165e-01 1.704675804876828524e-08 7.162242576902223384e-38 1.586820445537314421e-97
6.560999999999999055e-01 1.230237612271574350e-08 5.678881067127598398e-39 2.308374071458837309e-100
6.562000000000000055e-01 8.839079463757178540e-09 4.310857111282385433e-40 3.010933967791245575e-103
6.562999999999999945e-01 6.322436368268005494e-09 3.132120839804043406e-41 3.519085472737338627e-106
6.563999999999999835e-01 4.502044247724359554e-09 2.177576852487289967e-42 3.683042419519646218e-109
6.564999999999999725e-01 3.191326951565640149e-09 1.448284213134026113e-43 3.449408248963578504e-112
6.565999999999998504e-01 2.251942974565341505e-09 9.212209141480550706e-45 2.889042608804296587e-115
6.566999999999999504e-01 1.581816994802156365e-09 5.602565815471273817e-46 2.162435221108416299e-118
6.567999999999999394e-01 1.106002144150980421e-09 3.256911502201931092e-47 1.445500452629845898e-121
6.568999999999999284e-01 7.697409982542888560e-10 1.809266369162813087e-48 8.623494338149870012e-125
6.570000000000000284e-01 5.332245448373088002e-10 9.601906856157433374e-50 4.588175298573552392e-128
6.571000000000000174e-01 3.676549052174189949e-10 4.866882537904362013e-51 2.175644358179325445e-131
6.571999999999998954e-01 2.523033870602104970e-10 2.355383952945649774e-52 9.188069140640398538e-135
6.572999999999998844e-01 1.723240740780561670e-10 1.088098467482718113e-53 3.453377469285008909e-138
6.573999999999999844e-01 1.171376654423608225e-10 4.796755483539340120e-55 1.154356656258936816e-141
6.574999999999999734e-01 7.924327222726468514e-11 2.017326505823888026e-56 3.429276886366648438e-145
6.575999999999999623e-01 5.334956192279166063e-11 8.091507692017502037e-58 9.047316280948666172e-149
6.576999999999999513e-01 3.574285464630583963e-11 3.094438297734387041e-59 2.118251084398429172e-152
6.578000000000000513e-01 2.383003818295144516e-11 1.127994182450905434e-60 4.398037794743013328e-156
6.578999999999999293e-01 1.580973085953776042e-11 3.918114630460971670e-62 8.091804334882869870e-160
6.579999999999999183e-01 1.043699471175307351e-11 1.296475445552454029e-63 1.318303289706286352e-163
6.580999999999999073e-01 6.855902207964328346e-12 4.085441599814598078e-65 1.900400305258386706e-167
6.582000000000000073e-01 4.481039239532770933e-12 1.225662711608875713e-66 2.422191410211719400e-171
6.582999999999999963e-01 2.914100871773589667e-12 3.499684738467333329e-68 2.727575725808849116e-175
6.583999999999999853e-01 1.885509546331276524e-12 9.507812296837834146e-70 2.711559117535608150e-179
6.584999999999998632e-01 1.213773721862983682e-12 2.456929824352863692e-71 2.377944288432057181e-183
6.585999999999999632e-01 7.773524740867022617e-13 6.037138438886671205e-73 1.838182156582570215e-187
6.586999999999999522e-01 4.952857300940932101e-13 1.410134355151057616e-74 1.251529542218768110e-191
6.587999999999999412e-01 3.139333369365116968e-13 3.130001603594788703e-76 7.499256937801160087e-196
6.588999999999999302e-01 1.979470158576549209e-13 6.600032059240329445e-78 3.951629813965476951e-200
6.590000000000000302e-01 1.241584809389199139e-13 1.321680948005872128e-79 1.829653761850654845e-204
6.590999999999999082e-01 7.746501925190741125e-14 2.512736554703572240e-81 7.437849134765432881e-209
6.591999999999998971e-01 4.807535323389114864e-14 4.533844580942015146e-83 2.652529048229808779e-213
6.592999999999998861e-01 2.967649681845344363e-14 7.761473663869127182e-85 8.291883048717555494e-218
6.593999999999999861e-01 1.822055761294354536e-14 1.260193172759632422e-86 2.270229037978385505e-222
6.594999999999999751e-01 1.112640979226450739e-14 1.940000529238545027e-88 5.439390579232910275e-227
6.595999999999999641e-01 6.757377194134417518e-15 2.830699098207169166e-90 1.139548366499363020e-231
6.596999999999998421e-01 4.081466648812183980e-15 3.913514548877398896e-92 2.085702677362483187e-236
